Frequency (Hz),Channel 1 Magnitude (dB),Channel 2 Magnitude (dB),Channel 2 Phase (deg)
10.00000000000002,-0.06017429463921395,-0.6859306344974154,-41.61666748775652
10.29442419607396,-0.06409336361712863,-0.7582701369431546,-42.73506814932328
10.5975169528713,-0.06807924556560635,-0.8353148691572444,-43.8769355802973
10.9095334937942,-0.0723597770261498,-0.9166493353997974,-45.03846854056658
11.23073655663941,-0.07634855092117013,-1.002423908524391,-46.221507399983
11.5613966148401,-0.08071043122792809,-1.092855870280968,-47.42539868577646
11.90179210522173,-0.08528484271787184,-1.187616957740646,-48.65353981289894
12.25220966246363,-0.09214563920630978,-1.288749040503837,-49.90749608867752
12.61294436046368,-0.09658308294689276,-1.394179927936631,-51.17519476912607
12.98429996080916,-0.1008576714702756,-1.505086777545579,-52.46220880323551
13.36658916856357,-0.1056741129377872,-1.620949985353221,-53.77299900100165
13.76013389558409,-0.1111507920252063,-1.741612385139457,-55.10313693403253
14.1652655315918,-0.1182213173448025,-1.868506153000932,-56.45306619103477
14.58232522322308,-0.1322050614734476,-1.99754907427179,-57.83240702175254
15.01166416129673,-0.1510618204372103,-2.132387714335342,-59.23916510396856
15.4536438765389,-0.1743882375295555,-2.273084892515861,-60.67103031511131
15.90863654401519,-0.2012848962929679,-2.419318842409246,-62.13508150723416
16.37702529652561,-0.2302965171194244,-2.571189277094461,-63.63162619019225
16.85920454722685,-0.261136707868062,-2.73192490257427,-65.14863517861443
17.35558032175318,-0.2923017964590947,-2.898981468438291,-66.6970502184618
17.86657060011607,-0.3237938679588039,-3.073491014041846,-68.27061021798926
18.39260566866984,-0.3547402616398118,-3.257298958899831,-69.86797367850664
18.93412848244015,-0.3852120599254177,-3.447890091668726,-71.4906021065874
19.49159503812046,-0.4133872310073971,-3.647818548006054,-73.13377729895244
20.06547475805024,-0.4398014412198328,-3.857297555249825,-74.79682921760615
20.65625088549832,-0.4638880278935281,-4.074236393460795,-76.48038780175881
21.26442089158477,-0.4865039176856472,-4.300076114097596,-78.18088068312638
21.89049689418308,-0.5063192527969766,-4.537884750112414,-79.90637878281625
22.53500608915597,-0.5223320814932456,-4.783740824799684,-81.64113368239043
23.19849119428807,-0.5359758281390538,-5.039811764541087,-83.39785280756939
23.88151090628878,-0.5462858802921181,-5.307141218124631,-85.16206149139845
24.58464037125028,-0.5528392003843886,-5.580782864536737,-86.94754676231155
25.30847166895751,-0.5557413055838011,-5.867887368817261,-88.74045951720781
26.05361431145685,-0.5543213734509983,-6.167753907428572,-90.53876227852834
26.82069575630396,-0.5487597136865243,-6.475911888492001,-92.35486730705469
27.61036193492331,-0.5394080956865231,-6.793895493957885,-94.17909838196664
28.42327779652333,-0.5251858092096264,-7.127954953732242,-96.00469755662067
29.26012786802609,-0.5075892411143363,-7.46765490150921,-97.84376799228782
30.12161683048251,-0.4864773553870211,-7.821929795045532,-99.69240351915022
31.00847011245877,-0.4613839506434932,-8.189500749923882,-101.5454781784823
31.92143450089312,-0.433358278853436,-8.566410340087341,-103.4138523365362
32.86127876993835,-0.4023350533785451,-8.95690678453869,-105.2909871571301
33.82879432831848,-0.3690639079754365,-9.362491492951703,-107.1842321582781
34.82479588574506,-0.3343994921877725,-9.777279393760184,-109.1008416467724
35.85012213895501,-0.2983700338960451,-10.20903052956635,-111.0406285558046
36.90563647794652,-0.2621102113218555,-10.66080251739624,-113.0035214433857
37.99222771300816,-0.2277297138532653,-11.11856879844805,-115.0482999309422
39.1108108231542,-0.1958114972035319,-11.60597436755911,-117.1304789150334
40.26232772659498,-0.1656484218920635,-12.11452859389741,-119.2716002497491
41.44774807389179,-0.1366353858237807,-12.64004618749504,-121.5023144726269
42.66807006446487,-0.1086176839825402,-13.19683091849683,-123.7996589515192
43.92432128714061,-0.08365502007915643,-13.78664096106423,-126.176050361787
45.21755958544659,-0.06208147089903045,-14.40358054730756,-128.701052030776
46.54887394838362,-0.04841901593811287,-15.07463481187177,-131.3995964913357
47.91938542742372,-0.041241833442416,-15.79514999981604,-134.3247323635575
49.33024808050636,-0.0340198500241977,-16.58973694534576,-137.3965532110745
50.78264994382946,-0.02754488594297928,-17.44046003771985,-140.704811081866
52.27781403225118,-0.02148153793188157,-18.38340115656738,-144.2349524678356
53.81699936914602,-0.0160747462286532,-19.40788184423649,-148.0155569882137
55.40150204658327,-0.01125773556506706,-20.51993236225379,-152.096540033735
57.03265631671877,-0.007499292955413642,-21.73494446938234,-156.7206145738638
58.71183571531989,-0.004685875231278086,-23.23075625027215,-162.3466527952636
60.4404542183707,-0.001666007754470638,-25.83587875815466,-170.5801464338558
62.21996743272958,-0.003910684429971053,-34.35848409668505,178.7279041596886
64.05187382184238,-0.005285392682745856,-36.18251369810702,178.4581753591447
65.9377159675449,-0.00671434653940276,-37.39284671151957,178.2454377559367
67.87908186901464,-0.007807414681931506,-38.35986890655957,177.9642925407535
69.87760627996681,-0.008978263552006078,-39.17812403245191,177.6703567211557
71.93497208522184,-0.01020236923541191,-39.92158505929299,177.3270088634665
74.05291171780111,-0.01121826395210874,-40.64286978409449,176.8324752884542
76.23320861774606,-0.01269204568632549,-41.33548515712975,176.3902782772801
78.47769873388772,-0.01379176255971872,-41.96909194102399,175.8980658107792
80.78827206983348,-0.01510166261910541,-42.59372586174236,175.4191951252171
83.16687427546998,-0.01656168386983731,-43.21507604370028,174.764485433319
85.61550828532373,-0.01803765969332102,-43.78623766376538,174.325689804568
88.13623600516053,-0.0196776316852671,-44.36504587459829,173.5692557844436
90.73118004824094,-0.02145263941024017,-44.95969818404869,173.2235471470154
93.40252552269526,-0.02306657888063602,-45.48818047761003,172.5074917359067
96.15252187152475,-0.02501866605564797,-46.09310361915042,171.8604078840159
98.98348476677548,-0.0271189105403301,-46.61319465134067,171.4275882955825
101.897798059481,-0.02906605079182751,-47.19129597831877,170.7250057820632
104.8979157870177,-0.03113219424406726,-47.7806618902864,170.1112602025042
107.9863642395603,-0.03320141002966,-48.26528470573359,169.322467789543
111.1657440873783,-0.03597644859848439,-48.91039724304964,168.7229067840159
114.4387325707671,-0.03838038175943876,-49.38594216325698,168.0296141502612
117.8080857544542,-0.04116525823966952,-49.91817581770839,167.4920583019551
121.2766408483804,-0.04393416827735228,-50.45928496419209,166.8862687044924
124.8473185968136,-0.04657395581145542,-50.98391775614984,166.4379920771329
128.5231257377992,-0.04955876484711345,-51.54723310361119,165.7701849174984
132.3071575350253,-0.05277494728669642,-52.05653849026498,165.1044408743904
136.2026003842331,-0.05612849099506959,-52.59009934242624,163.8269921343349
140.2127344963642,-0.05968539876990809,-53.08677161863299,164.65943203322
144.3409366597062,-0.06342449274661728,-53.63557117807345,163.9539329575751
148.5906830833655,-0.0668438419293641,-54.14162210149744,162.8318789928934
152.9655523244556,-0.07064189572110595,-54.6770865042498,162.6024936450468
157.4692283014689,-0.07466163845840454,-55.28499687712631,161.7752699523371
162.1055033963733,-0.07832555895920217,-55.8997217772985,161.321167073805
166.8782816480374,-0.08255007776879945,-56.38538928309763,161.1563384443743
171.7915820396798,-0.08653748518152622,-56.90057712542379,161.2096814768544
176.84954188311,-0.09028197143367589,-57.375755368442,160.2186798235751
182.0564203026083,-0.09486189300127124,-58.0319306898042,159.8331099296488
187.4166018213777,-0.09864445573246361,-58.58965644692955,159.097114020238
192.9346000535946,-0.1024812188612107,-59.15348511555689,158.6481025517675
198.6150615051576,-0.1070350351481826,-59.57878754279675,158.6095933929492
204.4627694863408,-0.1118334568438315,-59.89924717518194,158.3932734040361
210.4826481396475,-0.1157699401337371,-60.69425030671393,158.8088918966825
216.6797665862508,-0.119626894791569,-61.51045223142512,158.8175978927526
223.0593431945154,-0.1242711557480657,-62.05865027981513,160.2911663008005
229.626749974198,-0.1283255092490941,-62.23851087588606,159.8944098202635
236.3875171000209,-0.132241113632508,-62.70965779924084,158.323791278863
243.3473375684297,-0.1368940466332508,-63.71312067802667,159.4385105000448
250.5120719914615,-0.143320697849131,-63.84285822899025,160.246167881435
257.8877535317523,-0.1535261338351974,-64.68504761930116,158.4883078898096
265.4805929828423,-0.1667286020920173,-65.56439233605934,161.2670656322359
273.2969839990628,-0.1825638897004179,-66.34057072573763,159.8251235485055
281.343508479399,-0.1993086895448603,-67.18735198569404,158.6278354918865
289.6269421098658,-0.218192673058136,-67.15834390064376,162.2815102686724
298.1542600690709,-0.237628331882881,-67.47937560541754,158.5675409827444
306.9326429017564,-0.2577693150632064,-68.66782282310564,162.4927202815434
315.969482565277,-0.2785364165296645,-69.22537848626344,164.8902447216257
325.2723886540949,-0.2994130108206854,-69.99468951449488,163.1756370578219
334.8491948075481,-0.3212692734742216,-69.95812222407108,161.4031004330379
344.7079653062705,-0.3425309463400488,-70.45476444888658,167.6666963516784
354.8570018628287,-0.3641599504133811,-70.40481418611449,164.4767390425954
365.3048506122958,-0.3846909258220403,-71.40601386444939,166.3708368243369
376.0603093086401,-0.4054905263138314,-72.85718914294532,166.967177204381
387.1324347329914,-0.4264306882537166,-71.61641580773045,170.2013816113
398.530550320032,-0.4468572017414173,-70.98188486785537,168.4656493196002
410.2642540089209,-0.4668758662530401,-72.48767710073902,177.7291625837327
422.3434263253659,-0.486239744396734,-72.56911647181111,170.6218889815051
434.7782387016617,-0.5051956107144088,-74.00153571285865,177.2539301814533
447.5791620416806,-0.5233232021810431,-75.03297450732711,175.7322359979177
460.7569755380374,-0.5413787190534031,-74.8787349302893,-176.6829430823186
474.322775748862,-0.5591520941312267,-74.92437332244801,-175.6766770926352
488.2879859418048,-0.5757712173692009,-75.8215868568563,-179.0847825300114
502.6643657131526,-0.5919549034607329,-74.3122194772366,-172.2127867662132
517.4640208901636,-0.6072496790531074,-75.33223531084892,-171.3149462921676
532.6994137249421,-0.6229880070341505,-78.62012030712171,-174.8594307009695
548.3833733884445,-0.6368096397300294,-77.44715771859491,-168.4898111380196
564.5291067734652,-0.6509462320388106,-78.29251604494377,-178.9701155042036
581.150209615678,-0.6648899186443507,-76.36417577394589,-166.0856122110421
598.2606779421076,-0.6773199154766206,-76.86429938077879,-165.5028320948371
615.8749198566831,-0.6900729792023952,-76.74756705394327,-174.9837283801398
634.0077676727748,-0.7024835261739912,-76.73190729147123,-169.3439105134045
652.6744904029437,-0.7125582339128349,-78.08680413388745,-156.1892022051576
671.890806616429,-0.7246006104136221,-77.4244844107361,-161.1607436740164
691.6728976751816,-0.7353199991269722,-77.61983245423791,-161.3139577815018
712.0374213595964,-0.7446661589172696,-76.74466480475408,-162.5147417134268
733.0015258954322,-0.7542993291108469,-77.76229887727617,-167.8648651690634
754.5828643937053,-0.7633305604252723,-78.52787641150788,-161.6878778779977
776.7996097157355,-0.7723882367270762,-79.55658048464097,-164.1181987395563
799.670469775846,-0.7803101004356991,-75.66315984382928,-167.38002348144
823.2147032946282,-0.7882608971774685,-77.41420198772535,-156.3643275589334
847.4521360160065,-0.7963527760893887,-76.09026521901045,-156.7339090329838
872.403177401772,-0.8031026917105198,-80.18846814402477,-160.7843131849243
898.0888378176585,-0.8095952400039736,-78.80664736233496,-151.8830306656166
924.5307462254045,-0.8162139389428409,-76.04347082809581,-145.2445845067144
951.7511683957098,-0.8225866978339367,-76.87870967724459,-152.120987938036
979.7730256574437,-0.8280595114950705,-77.18724197738803,-135.0074364131706
1008.619914198858,-0.8348434271924171,-77.61184519615497,-151.1231657568516
1038.316124937074,-0.8387474739026199,-76.61498088989805,-138.5115873619092
1068.886663972595,-0.8443942941230846,-77.41934882009764,-144.5819277616404
1100.357273646025,-0.849176021596473,-78.26470312621895,-146.458058516316
1132.75445421476,-0.8532803290217772,-79.02761656513941,-144.7829360731775
1166.105486167895,-0.8583216050602448,-76.78197182316674,-158.8287861098699
1200.438453198136,-0.8620945891706695,-76.49288153097905,-159.9104652059426
1235.782265850047,-0.8661054168327089,-76.98277615532928,-160.4374144493829
1272.166685864579,-0.8696440840959954,-74.1345877479269,-145.3697735958638
1309.622351240355,-0.8729025835474774,-76.21464365065351,-143.5469537011159
1348.180802032795,-0.875883136401069,-74.70196062462972,-141.0683423199999
1387.874506912877,-0.8795248110917658,-74.49717968727298,-143.5809815740064
1428.736890507814,-0.8824720727369297,-75.31807368976173,-135.2948645393737
1470.802361546705,-0.8847877148920671,-75.90626438789299,-150.6298291328853
1514.106341834908,-0.8871500140061002,-76.5528574622758,-153.967686144294
1558.685296081431,-0.8902656979421069,-73.55451741844169,-143.3652205345959
1604.576762604535,-0.8923715521110023,-74.34629028816985,-147.0600397437459
1651.819384941411,-0.8945205822913244,-73.20826995516065,-140.9598246275359
1700.452944388487,-0.8960837233319954,-74.75440933234337,-144.7809349875713
1750.518393499801,-0.8983325618719937,-71.61370266767739,-154.2367450215557
1802.057890571683,-0.8995418727321112,-72.76289609019418,-147.5370796880047
1855.114835142713,-0.901213189464407,-71.81910298162917,-161.5757340891301
1909.733904538886,-0.9028768740480773,-71.96104625539513,-160.420625972747
1965.961091494787,-0.9044132984271955,-73.07696913143621,-146.0291702475765
2023.843742882388,-0.9053915163714999,-72.24057930663638,-148.9319283415609
2083.430599580132,-0.9065086381311926,-71.07475030071497,-161.1094136498779
2144.771837515857,-0.9074578207970512,-71.88471684996256,-155.0907868962587
2207.919109918119,-0.9087852954883764,-71.06188750828869,-150.8670542291496
2272.925590811514,-0.9095046477723892,-71.35082827651512,-161.2493383229007
2339.846019792573,-0.9096635363895376,-70.76902849444144,-163.5853339352445
2408.736748123996,-0.9099869001863005,-70.3810762021395,-163.8466950008448
2479.655786186014,-0.9108032319659602,-70.06418804207232,-159.2602884876038
2552.662852324807,-0.9107461957813895,-69.42687836583077,-161.2283006522249
2627.819423139162,-0.9118080005173888,-69.16873972945635,-172.93717576906
2705.188785247687,-0.9110112838556255,-69.97614706548309,-169.0508817373267
2784.836088580165,-0.9111778754375641,-69.80964586430422,-163.5083150000563
2866.828401237959,-0.9113995701262143,-69.36528345046186,-169.5371007770298
2951.234765969603,-0.9110067855354844,-69.87106286110638,-178.5082357663375
3038.126258309209,-0.9116998197248061,-70.19320595066361,-178.3311350420259
3127.576046426593,-0.9112103466405546,-69.79699056339987,-170.9905200979114
3219.659452739522,-0.9115156425173797,-68.49604333202595,175.8099829881532
3314.454017339991,-0.911319209805208,-69.02825644018273,173.137422292711
3412.03956328793,-0.9106900431585809,-69.67693955095845,176.3097434214741
3512.498263827285,-0.9099633202679868,-68.81566705869224,168.708090968675
3615.914711581131,-0.9096344913722736,-68.18146445102562,170.9511730100467
3722.375989784047,-0.9088908715551024,-68.06723002824832,161.1293442417196
3831.971745611761,-0.9092311337212354,-68.20961878587562,163.3004423323111
3944.794265669743,-0.9077028944762999,-69.26609473146809,157.8968401284126
4060.938553704433,-0.9075862044461237,-68.2949776000671,158.8441412330986
4180.502410602446,-0.9068147477376345,-69.1250172955361,162.5727500257875
4303.586516745128,-0.905459502215793,-69.43803960330376,160.3302296256375
4430.294516787861,-0.9059646580385454,-69.00398231476851,154.7077775356747
4560.73310693547,-0.9041775460199024,-69.04582623674123,146.8952581909265
4695.012124787196,-0.9032814279553398,-68.67133216018205,151.5699022467607
4833.244641826987,-0.9024768414023275,-68.56991485875939,144.4025915213246
4975.54705863685,-0.9019143373833525,-68.65680568451467,145.208632326468
5122.03920291357,-0.903220127331677,-69.04325828626169,149.2116469983205
5272.844430371278,-0.9059456647712527,-69.78589338694398,140.7137951585878
5428.089728614785,-0.8995210225550071,-69.67404361873579,137.9266727886476
5587.905824071245,-0.8978077625144731,-70.65068382348022,135.6283698050505
5752.427292070155,-0.8976907874616087,-70.21686795613304,118.6833214114221
5921.792670164315,-0.8961074195213801,-70.39374697805283,127.0573810169966
6096.144574787281,-0.9081993933562686,-69.58239086776692,124.5613153605073
6275.629821345512,-0.9039324175759031,-71.14642459437296,127.17518728192
6460.399547846248,-0.897810183555479,-70.09327473587898,127.1268233547151
6650.609342165354,-0.8928237731059124,-70.28904340797902,117.9165344467626
6846.419373062246,-0.8908929503461678,-69.70619762264361,122.0709051446693
7047.994525052141,-0.8888536215313612,-71.10016233438907,120.0496086191449
7255.504537249341,-0.8885514050759535,-70.4211796153059,116.087089727902
7469.124146298393,-0.90045443176922,-72.90057013020468,111.7520577435943
7689.033233513427,-0.8896614339230724,-71.30044715120239,116.0182789554396
7915.416976349733,-0.8851347723214825,-73.74772557105609,112.2619069510067
8148.466004334919,-0.8837370556109951,-70.5323329099935,117.6331322539901
8388.376559591132,-0.8986593602143103,-74.29660376991689,130.8912312495496
8635.350662083449,-0.8813318365629783,-72.65279094589977,100.878803382816
8889.596279733505,-0.881449466509769,-70.50068937095149,114.023882563616
9151.327503541745,-0.8942382801123221,-73.71813843440567,104.8691228351725
9420.764727865715,-0.8780142046453161,-74.73001822426458,103.6439488009116
9698.13483600608,-0.8789485664661325,-73.82024307124949,109.217098728873
9983.671391256856,-0.8789898696854022,-72.11924049501012,96.74878903909269
10277.61483358058,-0.8755571219016853,-75.34136277137124,103.710523853012
10580.21268207405,-0.8860834448316688,-73.92816002632435,118.1733891915741
10891.71974339514,-0.8748278074637422,-72.06230613927553,107.6155021379825
11212.39832632633,-0.8845193736869673,-72.78167963443495,120.8001244158982
11542.51846265527,-0.871944693703869,-73.87425822889855,90.17416394028939
11882.35813455887,-0.8806576665424865,-72.71082905016038,104.2536326267385
12232.20350868189,-0.8704632842404529,-73.63783275918061,94.47518793513552
12592.34917710754,-0.8852046089107044,-74.8499582374365,97.37119408749379
12963.09840542277,-0.8693879381306959,-76.97392599723814,97.90204546269008
13344.76338808718,-0.8730547704297943,-73.9162555135959,104.1793015631967
13737.66551132063,-0.8670208241861422,-73.39554248860493,100.1331768105282
14142.13562373096,-0.8653025422033672,-73.65719427353875,74.28060094687302
14558.51431490954,-0.8665739501628409,-73.42290201190397,96.65695643830435
14987.15220222935,-0.8653075567904858,-73.54380200821009,106.0835344396664
15428.41022608728,-0.8727411041337634,-72.7201684991774,99.59207195684158
15882.65995383876,-0.8632900694402214,-73.8194342127626,84.59543000171755
16350.28389268123,-0.863087121630332,-70.1400734650833,103.4901328458145
16831.67581174958,-0.873151879811906,-73.40915420143482,93.52593022981802
17327.24107369475,-0.8635372700852875,-73.41070640483355,87.38658081886398
17837.39697602494,-0.8620692669580863,-70.78841234274697,79.62655338696923
18362.57310249675,-0.8719245928309139,-71.44100597144003,87.48962448746508
18903.2116848519,-0.8625869640212065,-70.91330397806993,82.92270422471029
19459.76797520472,-0.8702142501614534,-72.47185208831256,81.71738727543936
20032.71062939324,-0.8664211405968818,-70.21348441175228,74.26171788890611
20622.52210161733,-0.8610532449603409,-69.48281004809506,81.3439125355486
