Frequency (Hz),Channel 1 Magnitude (dB),Channel 2 Magnitude (dB),Channel 2 Phase (deg)
10.00000000000002,-0.1294545202611262,-0.6649684913571066,-41.70016870775934
10.29442419607396,-0.1359011763148191,-0.7368790928642401,-42.8282016019111
10.5975169528713,-0.1426807789433498,-0.8137008373776298,-43.97693410857863
10.9095334937942,-0.1495898377066567,-0.8940056062291789,-45.14979008007143
11.23073655663941,-0.1567330779861654,-0.9799873981082927,-46.34262374282432
11.5613966148401,-0.1641591172179966,-1.069226389824598,-47.55962019400427
11.90179210522173,-0.1710510866920548,-1.16445560219959,-48.79652393485004
12.25220966246363,-0.1783244593281237,-1.264900721271846,-50.05640391422298
12.61294436046368,-0.1858509463335695,-1.370706256922255,-51.33740622771624
12.98429996080916,-0.1930826531891172,-1.480870757894114,-52.64057867288961
13.36658916856357,-0.200508068330926,-1.596353407615668,-53.96655763306073
13.76013389558409,-0.208127150381398,-1.71791214896698,-55.31003530988797
14.1652655315918,-0.2164762844471773,-1.845479056310312,-56.67656256679482
14.58232522322308,-0.2290357835891906,-1.975797215666746,-58.06891189071655
15.01166416129673,-0.2478713500036522,-2.112019992660732,-59.48909050371287
15.4536438765389,-0.2714488818919522,-2.253743663389409,-60.9362173555843
15.90863654401519,-0.2983520557491647,-2.40092772841705,-62.41555415285329
16.37702529652561,-0.3275428271858097,-2.553937891399307,-63.92490357272098
16.85920454722685,-0.3578011643031292,-2.716256733053759,-65.45779746155678
17.35558032175318,-0.3895246191514765,-2.88349632876022,-67.02417997305406
17.86657060011607,-0.4208044553727426,-3.060682230726614,-68.61349919364595
18.39260566866984,-0.4514113493028311,-3.246102391360195,-70.22592782700049
18.93412848244015,-0.4812683195122166,-3.437985129427899,-71.86816869397302
19.49159503812046,-0.5089959414918978,-3.63979257316901,-73.52780909452791
20.06547475805024,-0.535093404595501,-3.850678180451945,-75.21170154291855
20.65625088549832,-0.5588272034855747,-4.069583373891669,-76.91247227668249
21.26442089158477,-0.5793262798509993,-4.299073504441108,-78.63352836538984
21.89049689418308,-0.5975065563305136,-4.538801162576073,-80.36775710025545
22.53500608915597,-0.612826310647881,-4.787652177521039,-82.12472195176036
23.19849119428807,-0.6249192738026831,-5.046473342302059,-83.89865928500038
23.88151090628878,-0.6328694863092544,-5.318168525460493,-85.6809160216435
24.58464037125028,-0.6374143324556757,-5.596113356873023,-87.48008738271298
25.30847166895751,-0.6382969119195459,-5.886229561350163,-89.28865647644551
26.05361431145685,-0.6348961011736558,-6.189727150584609,-91.10489494381397
26.82069575630396,-0.6274574123236453,-6.50126351626829,-92.93792407910153
27.61036193492331,-0.6157964019793394,-6.824652914400575,-94.77660924380623
28.42327779652333,-0.5999969295423222,-7.161463954698984,-96.62034640421092
29.26012786802609,-0.5804661865402528,-7.508390245749842,-98.47496423315647
30.12161683048251,-0.5574519322442463,-7.866069348861195,-100.3382939362941
31.00847011245877,-0.5306520313885035,-8.23823002716466,-102.2099667118591
31.92143450089312,-0.50058521276497,-8.620137222221627,-104.0975638061361
32.86127876993835,-0.4681820607006131,-9.016948101076947,-105.993894992227
33.82879432831848,-0.432984979921766,-9.426653498546916,-107.9047227278529
34.82479588574506,-0.3967657512926634,-9.85097552646271,-109.8398677784067
35.85012213895501,-0.3595439713290605,-10.29034580361045,-111.8026451343384
36.90563647794652,-0.3230631835221019,-10.74678032494899,-113.8072828067488
37.99222771300816,-0.2883759364060247,-11.21683381789704,-115.8761036764249
39.1108108231542,-0.255318397026229,-11.71392981805513,-117.9900969428282
40.26232772659498,-0.2226145171485416,-12.23232582391267,-120.1560465217947
41.44774807389179,-0.191271332877182,-12.76582988189029,-122.4148964988371
42.66807006446487,-0.1614475000367282,-13.33517233194094,-124.7392848941262
43.92432128714061,-0.1339605937366332,-13.93977187703701,-127.1436370115919
45.21755958544659,-0.1110909085189097,-14.56773509135522,-129.715147389872
46.54887394838362,-0.09695200744526286,-15.25869662410797,-132.4840602356614
47.91938542742372,-0.08480504834915947,-16.00103524470738,-135.4146763488031
49.33024808050636,-0.07259208600411489,-16.80598220168272,-138.5424881312729
50.78264994382946,-0.06125945730164668,-17.68280498400069,-141.8735673427359
52.27781403225118,-0.05096585969590162,-18.64182011079336,-145.4274367783011
53.81699936914602,-0.0416383212663807,-19.68944664729532,-149.2085295346361
55.40150204658327,-0.0332167301238071,-20.79681569184044,-153.3637693943782
57.03265631671877,-0.02607507103751464,-22.03610865347937,-158.0891390893434
58.71183571531989,-0.01960590169415674,-23.62965437047058,-164.0081690239712
60.4404542183707,-0.01417589546729863,-27.21363469271597,-174.2597149589517
62.21996743272958,-0.0200624747002465,-34.78276092583643,178.6737936881539
64.05187382184238,-0.02281984420572636,-36.35543332924918,178.4740323304948
65.9377159675449,-0.02538221492854844,-37.47219926706788,178.1351081931009
67.87908186901464,-0.02777431272083706,-38.3957281982543,177.9082938186781
69.87760627996681,-0.03005562547540484,-39.21043808267957,177.47338287805
71.93497208522184,-0.03245038274904503,-39.95283767590259,177.1043901911225
74.05291171780111,-0.03505744879279806,-40.64501150620955,176.6664350882077
76.23320861774606,-0.03755834294861449,-41.31920108040298,176.261711980714
78.47769873388772,-0.04024750780267908,-41.92214648285922,175.6339280277651
80.78827206983348,-0.04303329704879011,-42.56341375503545,175.1774854094423
83.16687427546998,-0.04600809609475409,-43.15531598550709,174.8212752528311
85.61550828532373,-0.04870868803558001,-43.7187056369505,174.0678646631367
88.13623600516053,-0.05214249599855648,-44.31728230668864,173.4359464312616
90.73118004824094,-0.05563848409848497,-44.88490184322234,172.8796997281365
93.40252552269526,-0.05895441802908764,-45.42635563448427,172.3231676473138
96.15252187152475,-0.06236115462681016,-46.06515148101266,171.5408851753806
98.98348476677548,-0.06633790010440602,-46.58853616994048,170.7483663860713
101.897798059481,-0.06994528708993726,-47.12860634258013,170.1840349007254
104.8979157870177,-0.07389739082541501,-47.66751690373719,169.7809072990778
107.9863642395603,-0.07818159125596787,-48.23774241087521,169.2831662808177
111.1657440873783,-0.08246868636983233,-48.71173243254703,168.4258478933014
114.4387325707671,-0.08742587351987803,-49.34675107053211,167.8675971038206
117.8080857544542,-0.09234660700829292,-49.84756677484859,167.2936234668245
121.2766408483804,-0.09712370396967618,-50.37901679008601,166.8734890299609
124.8473185968136,-0.1022825200490348,-50.88526789978157,165.9861903598406
128.5231257377992,-0.1075615721341142,-51.43133045894938,165.5878616037123
132.3071575350253,-0.1131035528644753,-51.95357825155575,164.8168192884856
136.2026003842331,-0.1188066013419533,-52.52644216974628,164.1907444361569
140.2127344963642,-0.1244744201172561,-53.01822754439367,163.1504078055314
144.3409366597062,-0.1308362560569383,-53.6737897714751,162.9841939938894
148.5906830833655,-0.1367785959851301,-54.07232751557987,162.2506081132752
152.9655523244556,-0.14315800481444,-54.54749617252225,162.2173101437991
157.4692283014689,-0.1492960368434451,-55.19890282291652,161.0969691690937
162.1055033963733,-0.1558873825880904,-55.74188955883326,161.399607810874
166.8782816480374,-0.1625077690430643,-56.17336011268272,160.4647933518051
171.7915820396798,-0.1693806327692819,-56.58804076672125,160.3911852671449
176.84954188311,-0.1760578700635549,-57.36438670557877,159.7389077350729
182.0564203026083,-0.1829233115041202,-57.93444452460461,159.7117514643991
187.4166018213777,-0.1899169808903832,-58.39449508751996,159.5470848093205
192.9346000535946,-0.1969013196414757,-58.88077847635735,159.570824843417
198.6150615051576,-0.2031511415211497,-59.77500606397022,158.5859267497511
204.4627694863408,-0.2101922626581699,-60.07946977373596,158.0565637048745
210.4826481396475,-0.2172980181786184,-60.57619732166665,157.7444236413997
216.6797665862508,-0.2245730906504753,-61.46638431948876,157.533877697233
223.0593431945154,-0.2313698086155027,-61.93374309100187,157.3604492942903
229.626749974198,-0.2385523049198346,-62.44245164043876,157.9943331053994
236.3875171000209,-0.2449394086618073,-62.87541531447604,158.0266079734818
243.3473375684297,-0.2522308940269531,-63.51106781327819,159.2933974937775
250.5120719914615,-0.2588555153737687,-64.3110401771946,159.6489596955068
257.8877535317523,-0.2676775135549175,-64.67209948600907,159.594855905072
265.4805929828423,-0.2818628676476357,-65.45779087405812,157.1498826714619
273.2969839990628,-0.2972965596769538,-65.35988220439849,159.1404902678363
281.343508479399,-0.3148536708710953,-66.30499947782104,158.7455421424107
289.6269421098658,-0.3337289060455552,-67.20993878908762,159.9958797917342
298.1542600690709,-0.3534057122278264,-67.22384850601364,162.9102671045798
306.9326429017564,-0.374037007974241,-68.67211781412784,162.3106515508664
315.969482565277,-0.39578083179416,-68.83750644381979,164.7539107357287
325.2723886540949,-0.4175259815061472,-69.75391575299473,160.0867585305969
334.8491948075481,-0.4392163067099836,-70.33988484533486,165.3701358377218
344.7079653062705,-0.4609452415454919,-71.33678201406745,165.4611240338077
354.8570018628287,-0.4829120205856774,-70.92618605455458,163.2747875224052
365.3048506122958,-0.5051364385238615,-71.44552063388068,166.4702890258407
376.0603093086401,-0.5261557265075466,-71.1047695196295,167.6967830452462
387.1324347329914,-0.5471764790645707,-72.08775220038108,173.6599265015981
398.530550320032,-0.5678456927839574,-72.25304905489858,174.0240407499597
410.2642540089209,-0.5883418404487671,-71.96746446552245,176.7845976306722
422.3434263253659,-0.6085260091843254,-74.35277147682325,179.7471427927459
434.7782387016617,-0.6274887191472799,-73.07309651336504,165.6573001647847
447.5791620416806,-0.6472667808068832,-73.76539541072052,172.9065072466982
460.7569755380374,-0.6652108146249889,-74.36410280723155,-178.8550759510626
474.322775748862,-0.6830938975813292,-75.93455218668802,-171.754904119774
488.2879859418048,-0.7004322457955131,-75.06308029717044,-170.2289934627006
502.6643657131526,-0.7168833056557012,-75.68417274630733,173.6719408734804
517.4640208901636,-0.7327578994080439,-75.05438228297743,-170.8347701117089
532.6994137249421,-0.7485021599852425,-75.83226225763741,-176.4400887824467
548.3833733884445,-0.7635011555195764,-75.43998704458588,-164.1565514805922
564.5291067734652,-0.7778209881870271,-78.45369769433727,-158.2778660655273
581.150209615678,-0.7916768890626681,-76.6884199880149,-156.4131269144485
598.2606779421076,-0.8044721955115326,-78.469022868341,-169.1271176593036
615.8749198566831,-0.8176235983625733,-78.48669166757972,-159.3177757268553
634.0077676727748,-0.8293296127575707,-76.79274798814103,-156.8750010946613
652.6744904029437,-0.8417876561077496,-77.00473303770592,-167.8280347568197
671.890806616429,-0.8531927233779335,-76.91704290885498,-170.9122571419175
691.6728976751816,-0.8629494794164593,-77.56959744710906,-146.5573125969443
712.0374213595964,-0.8737241567458004,-76.49651181290886,-149.4731327327256
733.0015258954322,-0.8834795283350927,-74.76946011395069,-145.7015689663906
754.5828643937053,-0.8921339774989839,-78.32724735650636,-159.9472992599413
776.7996097157355,-0.9014622815797667,-76.66755279306801,-145.0306334737717
799.670469775846,-0.9108412945650846,-77.00724188551462,-145.3590415544588
823.2147032946282,-0.9178535110349701,-76.82122019516321,-135.1134431163031
847.4521360160065,-0.9257124671968462,-77.82354441610434,-144.5972655001178
872.403177401772,-0.9335233106920748,-77.67362941564824,-157.1283757477104
898.0888378176585,-0.9398757330928655,-77.73538407012288,-145.7899439828985
924.5307462254045,-0.9472572912814724,-76.13507104975436,-149.6422523570745
951.7511683957098,-0.9535998112584332,-78.3767126251515,-133.4972459266973
979.7730256574437,-0.9595084842041757,-76.67109886726293,-148.76736467011
1008.619914198858,-0.9653947886262106,-76.80367291711609,-138.148565769076
1038.316124937074,-0.9703548290968154,-76.5173772810243,-147.4745343977507
1068.886663972595,-0.9760435848414613,-75.77226368617724,-149.8907259490166
1100.357273646025,-0.9803254521864369,-75.12409099244468,-143.6096647959208
1132.75445421476,-0.9848733733439913,-75.85199840076392,-136.604631375351
1166.105486167895,-0.9899995133990616,-75.63716793470961,-136.4827803139767
1200.438453198136,-0.9937229414928972,-77.72689478984442,-157.3315085087229
1235.782265850047,-0.9981157928707983,-78.57295273166588,-144.6215856532892
1272.166685864579,-1.001713624515101,-76.83962312756771,-139.776833736974
1309.622351240355,-1.004403836848968,-75.07970556098667,-138.2726918847794
1348.180802032795,-1.008477345132758,-74.65244645674753,-149.9736580311442
1387.874506912877,-1.011704632521757,-79.05232876045946,-146.661750218823
1428.736890507814,-1.014797171121313,-73.66158633298512,-154.8420106139235
1470.802361546705,-1.017310392570319,-72.24065746579406,-136.7798952143499
1514.106341834908,-1.020174299464063,-74.83157915118196,-139.4529096913924
1558.685296081431,-1.022488102439269,-74.47420673587214,-137.7139888657576
1604.576762604535,-1.025091168833227,-74.47763613648914,-143.2647498783801
1651.819384941411,-1.026687256466012,-72.95471427555869,-140.7784177757788
1700.452944388487,-1.029395502405715,-73.53852736752549,-140.1414411246276
1750.518393499801,-1.03047658156895,-74.31274412759711,-140.2059573809539
1802.057890571683,-1.032827655852888,-72.76468883692442,-142.3310683703328
1855.114835142713,-1.034245039260936,-74.19464572944078,-147.2061079621838
1909.733904538886,-1.035528943618649,-74.03301248749615,-154.7739080832835
1965.961091494787,-1.037204344668944,-72.07680685163982,-146.289844986886
2023.843742882388,-1.038195703621448,-72.75737765962161,-159.6818622608824
2083.430599580132,-1.039772736068622,-71.77863649355474,-159.5932354662218
2144.771837515857,-1.040398622498109,-71.59146911550688,-154.3558211075059
2207.919109918119,-1.040511337603077,-72.37314232078479,-156.0974333533328
2272.925590811514,-1.041193257014672,-71.53775922603147,-159.0580887756875
2339.846019792573,-1.04254490482902,-71.23889856788888,-160.0644035568497
2408.736748123996,-1.042900400663579,-71.87117523283715,-156.868688254617
2479.655786186014,-1.043974876083013,-72.02871402089379,-158.9648993422277
2552.662852324807,-1.04497188089802,-70.19282354143583,-159.5322917229326
2627.819423139162,-1.044379338838092,-70.26241156497221,-162.178447815167
2705.188785247687,-1.04433086261111,-70.45354001438631,-158.9026333772971
2784.836088580165,-1.044076155761716,-69.3961878739467,179.1804125928488
2866.828401237959,-1.044167763370121,-70.18646340248938,-167.8668009521732
2951.234765969603,-1.044632338103621,-69.35675510014745,-170.6113266850348
3038.126258309209,-1.044119805531642,-69.09128236128967,-171.9716759090803
3127.576046426593,-1.045248239433038,-69.00228687743314,-174.8847881967453
3219.659452739522,-1.044808417385519,-68.56307075931679,-173.0490327300977
3314.454017339991,-1.044816350863389,-69.34734007402027,178.5248223512221
3412.03956328793,-1.043819719826181,-70.26746766103101,-178.6248490428547
3512.498263827285,-1.043304686162951,-69.7359636103088,-179.0960931422874
3615.914711581131,-1.044277723118561,-68.55503411540519,176.3110203744038
3722.375989784047,-1.041960985894764,-68.6042864523243,170.9172489226442
3831.971745611761,-1.041752988504279,-69.36237007863915,174.1173699852587
3944.794265669743,-1.041022556810169,-69.14202696995842,170.0571467098158
4060.938553704433,-1.040835450082504,-69.18278255127984,160.4245390567856
4180.502410602446,-1.039589654321456,-68.49363411402102,163.0266062601786
4303.586516745128,-1.038748345688045,-70.26081127440666,157.7581880529915
4430.294516787861,-1.039366258536794,-69.24424119381521,152.2184218712015
4560.73310693547,-1.038290896763439,-69.19037080276144,158.1353977368543
4695.012124787196,-1.036187270403796,-69.03137760925289,151.006535943679
4833.244641826987,-1.035521660345957,-69.48802208166781,148.6632106433418
4975.54705863685,-1.035979672934768,-69.43843991292155,147.2819334467232
5122.03920291357,-1.037373161141985,-69.60213373013562,147.5565130146542
5272.844430371278,-1.03868042514481,-69.91240708444968,144.0163463935734
5428.089728614785,-1.032827268892823,-71.09383649600412,142.1839996840575
5587.905824071245,-1.031241684229344,-71.26399629699243,134.4634932389864
5752.427292070155,-1.029923794399356,-70.03401618295848,141.6147804197897
5921.792670164315,-1.028802190956781,-72.01395633818798,136.9934620269021
6096.144574787281,-1.040848822011027,-71.94237313272318,126.4996799793684
6275.629821345512,-1.036753616782658,-71.57899130483851,140.1535504049243
6460.399547846248,-1.031754546264493,-69.92277734962335,133.743970360501
6650.609342165354,-1.026799022012675,-71.72574812439069,127.7161609248282
6846.419373062246,-1.023488889794542,-71.86173829991282,125.3735749043495
7047.994525052141,-1.021984907664021,-71.18549696865142,125.0031714919203
7255.504537249341,-1.021804885699451,-71.90350648671908,122.4497981880111
7469.124146298393,-1.033388699550519,-72.8052968521672,127.4484229108564
7689.033233513427,-1.023020051146661,-73.87110191458066,116.9605614512202
7915.416976349733,-1.018073817119143,-72.47726553617602,111.2782727359555
8148.466004334919,-1.016870721174653,-76.37178478332383,128.1463023017382
8388.376559591132,-1.031026700696689,-72.78419321200802,127.3214949933256
8635.350662083449,-1.015435377406104,-74.2544612388709,104.1672375704054
8889.596279733505,-1.013848195415246,-73.65692005765275,101.8516816481005
9151.327503541745,-1.027794059944126,-75.70680025035935,108.2935633580014
9420.764727865715,-1.011935763621355,-76.99910231220339,118.4078424136221
9698.13483600608,-1.011882355432701,-75.78609623685884,118.8734628957865
9983.671391256856,-1.012389905557866,-74.19089118569248,106.1949320296748
10277.61483358058,-1.008784958699724,-78.22084731139495,87.74229248688026
10580.21268207405,-1.019568668996224,-76.31396783737999,99.9165031207867
10891.71974339514,-1.006927090856961,-77.71769875437772,97.84059919442126
11212.39832632633,-1.01778253082007,-76.1912920330177,110.0364785922178
11542.51846265527,-1.00524859724922,-76.90074675242275,109.2418875974344
11882.35813455887,-1.014078092426088,-76.54736476929214,118.3576521278617
12232.20350868189,-1.003832190438439,-73.89671193806167,106.7827514524124
12592.34917710754,-1.017997610022985,-75.84295275527474,102.0246137904779
12963.09840542277,-1.002725000122028,-81.0867166475073,85.86874953664858
13344.76338808718,-1.005628810423132,-80.53630529972827,97.02056458016486
13737.66551132063,-1.000431618422918,-72.51174514834695,98.71524198300719
14142.13562373096,-0.9991284228695491,-74.99524141925581,93.32465092317716
14558.51431490954,-0.9989893483628955,-74.60524617283893,96.32347474714173
14987.15220222935,-0.9979595344280832,-80.93974494392941,78.23424476665974
15428.41022608728,-1.00410696487967,-76.68153511842482,89.05217071414341
15882.65995383876,-0.996410435418405,-75.26826218549316,101.0430523906921
16350.28389268123,-0.9964974996178397,-76.44327301370711,82.19795385161677
16831.67581174958,-1.004606124268983,-75.60020002067608,98.3770958972238
17327.24107369475,-0.9957755310294557,-74.42152782987583,122.0339812102689
17837.39697602494,-0.9946859078435251,-81.13935456738395,104.9653750443339
18362.57310249675,-1.004812324734546,-75.28517738849021,73.23860350914248
18903.2116848519,-0.9948975343731334,-74.80837733540658,104.1738075121546
19459.76797520472,-1.005300786260361,-75.54051399909389,85.3627823830226
20032.71062939324,-0.9997858401017679,-71.50792964899506,93.21477439493276
20622.52210161733,-0.9930178163477192,-73.62846039204085,90.25645752542059
21229.69905069592,-0.9974465222118218,-76.38484905714847,91.56723468436104
